Source Location (kilometers) : (0, 0, 3).
Receiver Location (kilometers) : (223.336, 4.1487, 0).
theta = 9.95436, phi = 89.9995,  c0(zground) = 0.33676 km/s
# x [km]	y [km]	z [km]	Geo. Atten. [dB]	Atmo. Atten. [dB]	Travel Time [s]	  rho  	   c [km/s]  	   u [km/s]  	   v [km/s]  	   w [km/s]  	Slowness_x [s/km]	Slowness_y [s/km]	Slowness_z [s/km]	Jacobian [km^2/rad^2]
0	0	3	0	0	0	0.000922458	0.33676	0.0101608	1.11518e-05	0	2.84036	2.47247e-05	0.4985	0
1.2142	0.00146578	3.19775	-23.6808	-1.3312e-07	3.54334	0.00090493	0.336005	0.0116707	0.000813717	0	2.84036	-5.41501e-05	0.460426	-1.41229
2.43508	0.00567339	3.38158	-29.8623	-2.80446e-07	7.09274	0.000888847	0.335358	0.012888	0.0015631	0	2.84036	-7.20972e-05	0.429589	-5.70613
3.66061	0.0124477	3.55612	-33.6067	-4.43142e-07	10.6472	0.000873742	0.334726	0.0137999	0.00225134	0	2.84034	-3.81662e-05	0.413981	-13.1877
4.88898	0.0216081	3.72824	-36.4285	-6.22807e-07	14.2077	0.000859201	0.334057	0.0143834	0.00289119	0	2.84033	3.03492e-05	0.419673	-24.6991
6.11845	0.0330582	3.90658	-38.7454	-8.21795e-07	17.7765	0.000844592	0.333348	0.0146555	0.00350617	0	2.84033	0.000115738	0.445237	-41.2367
7.34733	0.0467663	4.09971	-40.7422	-1.04355e-06	21.3571	0.000829188	0.332483	0.0146903	0.00411709	0	2.84034	0.000189575	0.489848	-63.9338
8.57433	0.0627772	4.31265	-42.4424	-1.2939e-06	24.9517	0.000812629	0.331531	0.0145836	0.00474405	0	2.84036	0.000231011	0.541807	-92.4681
9.79824	0.0811454	4.5487	-43.9489	-1.58073e-06	28.563	0.000794722	0.330385	0.0143658	0.00537366	0	2.84038	0.000222257	0.602648	-127.641
11.018	0.101832	4.80964	-45.2828	-1.9159e-06	32.1928	0.000775471	0.329083	0.0140824	0.00597329	0	2.84041	0.000166678	0.667099	-168.931
12.2328	0.124735	5.09597	-46.4657	-2.3151e-06	35.8429	0.000754854	0.32759	0.0138826	0.00654015	0	2.84044	7.85084e-05	0.730581	-215.178
13.4423	0.149666	5.40585	-47.512	-2.80104e-06	39.5132	0.000732999	0.325987	0.0138383	0.0070172	0	2.84047	-3.4198e-05	0.788327	-264.614
14.6467	0.176177	5.73685	-48.46	-3.40574e-06	43.2029	0.00070999	0.324267	0.0139632	0.00732948	0	2.8405	-0.000178668	0.841404	-316.894
15.846	0.203239	6.08618	-49.3244	-4.1759e-06	46.9108	0.000685802	0.322537	0.0142319	0.00723718	0	2.84052	-0.000356354	0.888191	-370.908
17.0408	0.229308	6.45187	-50.1364	-5.17985e-06	50.636	0.000660593	0.320859	0.0144598	0.00684569	0	2.84053	-0.000549531	0.932915	-427.897
18.2307	0.254019	6.83331	-50.9032	-6.50841e-06	54.3787	0.000634735	0.319143	0.0147754	0.00650756	0	2.84052	-0.00071082	0.974864	-487.01
19.4163	0.277992	7.22811	-51.621	-8.28344e-06	58.1371	0.000608512	0.317462	0.0152244	0.00650046	0	2.8405	-0.000821697	1.01107	-546.419
20.5977	0.303065	7.63556	-52.3283	-1.06342e-05	61.9112	0.000582667	0.31558	0.0157353	0.00704169	0	2.84048	-0.000896465	1.05056	-610.21
21.774	0.330885	8.05751	-53.0445	-1.36626e-05	65.7039	0.00055764	0.313356	0.0162142	0.00780628	0	2.84045	-0.000953657	1.09929	-681.843
22.9446	0.361173	8.49474	-53.7217	-1.7427e-05	69.5176	0.000532661	0.311	0.0170837	0.00817774	0	2.84042	-0.00103084	1.14075	-751.526
24.1115	0.39218	8.94176	-54.3493	-2.197e-05	73.3469	0.000507859	0.308572	0.0185641	0.00821969	0	2.84043	-0.00114201	1.16866	-814.179
25.2766	0.423519	9.39356	-54.9311	-2.72668e-05	77.1861	0.000483249	0.306245	0.0204903	0.00839148	0	2.84045	-0.00131196	1.18306	-868.901
26.4412	0.45605	9.84636	-55.5006	-3.32894e-05	81.0304	0.000458841	0.304051	0.0223745	0.00886203	0	2.84049	-0.00149362	1.19511	-923.171
27.6042	0.490955	10.3032	-56.106	-3.99582e-05	84.8837	0.000435108	0.301868	0.0235499	0.00960551	0	2.84052	-0.00167115	1.22402	-991.876
28.7628	0.529417	10.7709	-56.7455	-4.71439e-05	88.755	0.000411797	0.299568	0.0241734	0.0106628	0	2.84054	-0.0017677	1.26881	-1075.07
29.9154	0.57313	11.2525	-57.3927	-5.47078e-05	92.6497	0.000388837	0.297148	0.0246383	0.012218	0	2.84053	-0.00171325	1.31956	-1165.12
31.0615	0.623825	11.7489	-58.0314	-6.2523e-05	96.57	0.000365744	0.294797	0.0250811	0.0138652	0	2.84049	-0.00154906	1.36822	-1255.74
32.2021	0.679406	12.2572	-58.6404	-7.06223e-05	100.512	0.000341932	0.292941	0.0255748	0.0143579	0	2.8404	-0.00127649	1.40309	-1337.97
33.3405	0.734043	12.7706	-59.1872	-7.91633e-05	104.466	0.000317678	0.291769	0.0267428	0.013175	0	2.84028	-0.000782571	1.40623	-1394.32
34.4824	0.780624	13.2771	-59.6563	-8.84934e-05	108.412	0.000292988	0.29179	0.0281961	0.0102546	0	2.8402	-9.51959e-05	1.37332	-1420.42
35.6305	0.813642	13.7703	-60.0907	-9.9244e-05	112.337	0.000268607	0.293064	0.0286103	0.00648814	0	2.84017	0.000565568	1.33168	-1442.34
36.7828	0.833042	14.2542	-60.5632	-0.000111887	116.246	0.000246711	0.294367	0.0279059	0.0035452	0	2.8402	0.000991387	1.31452	-1490.44
37.9338	0.844771	14.7417	-61.1317	-0.000126147	120.16	0.000228396	0.294485	0.0264642	0.00254916	0	2.84024	0.00109047	1.34426	-1587.53
39.0774	0.855512	15.246	-61.7629	-0.000141295	124.099	0.000212402	0.293492	0.0248436	0.00278592	0	2.84028	0.000944184	1.40485	-1718.48
40.2125	0.866904	15.7695	-62.3756	-0.000156885	128.07	0.000196916	0.29231	0.0238995	0.00264843	0	2.84031	0.000729562	1.45401	-1837.68
41.3422	0.875887	16.3046	-62.9539	-0.000172976	132.062	0.000181591	0.291368	0.0237411	0.00162816	0	2.84036	0.000548371	1.48	-1931.62
42.4691	0.87985	16.8453	-63.5113	-0.000189773	136.065	0.000167093	0.290753	0.0236313	0.000268239	0	2.84042	0.000375646	1.49699	-2017.86
43.5929	0.878555	17.3926	-64.0758	-0.000207389	140.081	0.000153752	0.290258	0.0229159	-0.000926036	0	2.84049	0.000168007	1.52365	-2120.04
44.7114	0.872828	17.9508	-64.6503	-0.000225865	144.115	0.000141354	0.289881	0.0215379	-0.00188766	0	2.84056	-8.11128e-05	1.56085	-2240.51
45.8226	0.863505	18.5231	-65.2335	-0.000245284	148.174	0.000129553	0.28967	0.0196674	-0.00263678	0	2.84061	-0.000347915	1.60354	-2373.54
46.9256	0.851355	19.111	-65.8308	-0.000265797	152.261	0.000118092	0.28959	0.0175103	-0.00319715	0	2.84066	-0.000605485	1.64812	-2514.21
48.0202	0.837096	19.7145	-66.4409	-0.000287606	156.374	0.000106901	0.289684	0.0152754	-0.00357721	0	2.84069	-0.000820481	1.68947	-2655.28
49.1067	0.821545	20.3323	-67.0556	-0.00031094	160.512	9.62273e-05	0.289964	0.0131141	-0.00374142	0	2.84072	-0.000975237	1.72453	-2791.85
50.1862	0.805697	20.9624	-67.6684	-0.000335931	164.671	8.63879e-05	0.290289	0.0111912	-0.00365497	0	2.84073	-0.00107219	1.75355	-2922.42
51.2599	0.790693	21.6023	-68.264	-0.000362485	168.846	7.75867e-05	0.290662	0.00966955	-0.00329483	0	2.84075	-0.00113057	1.77371	-3041.44
52.3296	0.777625	22.2488	-68.8411	-0.00039036	173.032	6.97853e-05	0.291022	0.00862198	-0.00271578	0	2.84077	-0.00118596	1.78519	-3147.57
53.3974	0.767237	22.8987	-69.4	-0.000419325	177.223	6.28262e-05	0.291449	0.00799993	-0.0020142	0	2.8408	-0.00126508	1.78733	-3239.4
54.4649	0.759831	23.5489	-69.9462	-0.000449187	181.412	5.65692e-05	0.29194	0.00773065	-0.00129346	0	2.84082	-0.00138326	1.7816	-3318.46
55.534	0.755258	24.1966	-70.4767	-0.000480011	185.595	5.09023e-05	0.292642	0.0077382	-0.000659718	0	2.84085	-0.00154112	1.76622	-3382.06
56.6063	0.752927	24.8389	-70.9964	-0.000512113	189.765	4.57463e-05	0.293537	0.00794672	-0.000199892	0	2.84088	-0.0017197	1.74289	-3432.18
57.6833	0.752153	25.4734	-71.5021	-0.000546022	193.917	4.10913e-05	0.294631	0.00831213	0.000136752	0	2.84091	-0.00190079	1.7122	-3469.19
58.766	0.752657	26.0981	-71.9931	-0.000582283	198.048	3.69462e-05	0.295799	0.00883893	0.00046804	0	2.84094	-0.00206667	1.67666	-3495.68
59.8552	0.754641	26.7114	-72.4656	-0.000621459	202.155	3.32991e-05	0.296978	0.00953537	0.000907872	0	2.84097	-0.00220672	1.63734	-3512.43
60.9514	0.758747	27.312	-72.9184	-0.000663992	206.237	3.01178e-05	0.29809	0.010402	0.00154793	0	2.84098	-0.00231062	1.59581	-3521.23
62.055	0.765774	27.8991	-73.3503	-0.000710344	210.293	2.73488e-05	0.299119	0.0114126	0.00236802	0	2.84099	-0.00237593	1.55277	-3523.07
63.1659	0.776246	28.472	-73.7658	-0.000761079	214.323	2.49263e-05	0.300039	0.0125036	0.00327836	0	2.84098	-0.00239965	1.51	-3521.49
64.2841	0.790323	29.0304	-74.1621	-0.000816922	218.327	2.2798e-05	0.300932	0.0136148	0.00419467	0	2.84097	-0.00237924	1.46672	-3515.82
65.4094	0.807862	29.5745	-74.545	-0.000878753	222.308	2.09166e-05	0.301761	0.0146954	0.00504616	0	2.84094	-0.00231288	1.42487	-3509.97
66.5412	0.828464	30.1046	-74.9194	-0.000947621	226.265	1.92446e-05	0.302502	0.0157018	0.00577223	0	2.8409	-0.00219882	1.38593	-3507.74
67.6792	0.851524	30.6212	-75.2795	-0.00102665	230.201	1.77513e-05	0.303285	0.0165978	0.0063228	0	2.84084	-0.00203497	1.34771	-3505.49
68.8227	0.876275	31.1254	-75.6327	-0.00111829	234.117	1.64092e-05	0.304055	0.0173531	0.00665355	0	2.84077	-0.00182035	1.31225	-3508.11
69.9712	0.901803	31.6182	-75.9868	-0.00122389	238.015	1.51969e-05	0.304765	0.017944	0.00672713	0	2.84069	-0.00155416	1.28146	-3520.74
71.124	0.927111	32.1008	-76.3347	-0.00134494	241.899	1.40964e-05	0.305536	0.0183561	0.00654376	0	2.84059	-0.00123288	1.25277	-3538.46
72.2804	0.951367	32.5747	-76.686	-0.00148273	245.769	1.30937e-05	0.306272	0.0186	0.00617483	0	2.84047	-0.000855648	1.22855	-3567.19
73.44	0.974077	33.041	-77.0381	-0.00163868	249.628	1.21797e-05	0.306994	0.0187047	0.00571432	0	2.84034	-0.000424407	1.20772	-3604.89
74.6021	0.995094	33.5009	-77.3881	-0.00181387	253.477	1.13453e-05	0.307729	0.0186973	0.00524773	0	2.84021	5.44831e-05	1.18905	-3648.81
75.7665	1.01458	33.9551	-77.7366	-0.00200915	257.318	1.05836e-05	0.30846	0.0185975	0.00485275	0	2.84006	0.000570806	1.17258	-3699.42
76.9328	1.03296	34.4046	-78.0856	-0.00222525	261.152	9.88681e-06	0.309152	0.0184337	0.00459146	0	2.83991	0.00111461	1.15859	-3757.23
78.1007	1.0508	34.8496	-78.4234	-0.00246232	264.979	9.24779e-06	0.30989	0.0182648	0.00447685	0	2.83975	0.0016784	1.14344	-3811.73
79.2705	1.06865	35.2898	-78.7535	-0.00272054	268.799	8.65992e-06	0.310604	0.0181494	0.0044899	0	2.83959	0.0022547	1.12752	-3862.99
80.4425	1.08695	35.7242	-79.0702	-0.00299993	272.61	8.11805e-06	0.311314	0.0181435	0.0046076	0	2.83942	0.00284419	1.10884	-3904.32
81.6171	1.10604	36.1511	-79.3598	-0.00330023	276.412	7.61831e-06	0.312102	0.0182972	0.00480733	0	2.83924	0.00344527	1.08377	-3923.07
82.7952	1.12619	36.5684	-79.6243	-0.00362109	280.201	7.15825e-06	0.312896	0.0186511	0.00506818	0	2.83907	0.00405723	1.05297	-3919.34
83.9777	1.14757	36.9732	-79.8535	-0.00396232	283.975	6.73662e-06	0.313738	0.0192058	0.00536601	0	2.8389	0.00468098	1.01473	-3885.95
85.1652	1.17027	37.3627	-80.0447	-0.0043233	287.732	6.35287e-06	0.314621	0.0199189	0.00567666	0	2.83873	0.0053143	0.969791	-3823.94
86.3583	1.19425	37.7347	-80.1995	-0.0047031	291.469	6.00613e-06	0.315509	0.0207357	0.00597546	0	2.83856	0.00595131	0.919981	-3738.56
87.5572	1.21944	38.0877	-80.3248	-0.00510063	295.187	5.69483e-06	0.316339	0.0216086	0.00624622	0	2.8384	0.00658621	0.868023	-3638.96
88.7618	1.2457	38.4202	-80.4137	-0.00551449	298.885	5.4168e-06	0.317152	0.0224969	0.00647642	0	2.83824	0.00721474	0.81344	-3523.04
89.9721	1.27285	38.7317	-80.4669	-0.00594309	302.563	5.1694e-06	0.317934	0.0233715	0.00665867	0	2.83809	0.00783391	0.757205	-3393.96
91.1876	1.30071	39.0218	-80.4943	-0.00638472	306.224	4.95014e-06	0.318635	0.0242076	0.00679177	0	2.83794	0.00844222	0.701591	-3261.19
92.408	1.3291	39.2908	-80.4962	-0.0068373	309.868	4.75607e-06	0.319264	0.0249917	0.0068748	0	2.83779	0.00904416	0.646833	-3125.96
93.6329	1.35784	39.5382	-80.4696	-0.00729993	313.497	4.5851e-06	0.319843	0.0257114	0.00691184	0	2.83764	0.00963436	0.592581	-2987.52
94.8619	1.38679	39.7645	-80.4125	-0.0077712	317.112	4.43502e-06	0.320379	0.0263623	0.00690793	0	2.8375	0.0102099	0.538747	-2845.49
96.0944	1.41581	39.9705	-80.3502	-0.00824926	320.715	4.3034e-06	0.320814	0.0269441	0.00687014	0	2.83736	0.0107717	0.488428	-2715.81
97.3302	1.4448	40.1561	-80.2628	-0.00873357	324.307	4.18881e-06	0.321213	0.0274563	0.00680515	0	2.83721	0.0113214	0.438827	-2585.98
98.5687	1.47368	40.3227	-80.1572	-0.00922237	327.89	4.08909e-06	0.321562	0.0279047	0.00672002	0	2.83707	0.0118576	0.390736	-2459.73
99.8096	1.50239	40.4706	-80.0381	-0.00971497	331.464	4.00289e-06	0.321862	0.0282923	0.00662368	0	2.83692	0.0123811	0.344361	-2339.36
101.053	1.53092	40.6	-79.9119	-0.010211	335.032	3.92927e-06	0.322114	0.0286244	0.00652363	0	2.83678	0.012891	0.299781	-2227.8
102.297	1.55926	40.7121	-79.7701	-0.0107092	338.594	3.86676e-06	0.322329	0.0289065	0.00642508	0	2.83663	0.0133933	0.256335	-2119.73
103.543	1.58743	40.8061	-79.5648	-0.0112098	342.15	3.81695e-06	0.322528	0.0291035	0.00633023	0	2.83649	0.0138843	0.211095	-1994.86
104.791	1.61548	40.8834	-79.4767	-0.0117119	345.703	3.77489e-06	0.322649	0.0292986	0.00625147	0	2.83634	0.0143617	0.172787	-1931.63
106.039	1.64344	40.9451	-79.3125	-0.0122148	349.253	3.74132e-06	0.32276	0.0294621	0.00618587	0	2.83619	0.0148282	0.132548	-1842.15
107.288	1.67136	40.9902	-79.0899	-0.0127185	352.8	3.71646e-06	0.32285	0.0295927	0.00613702	0	2.83604	0.0152857	0.0912868	-1737.53
108.537	1.69932	41.019	-78.9388	-0.0132229	356.345	3.69991e-06	0.322905	0.0296922	0.00610653	0	2.8359	0.0157324	0.0520536	-1669.78
109.787	1.72737	41.0324	-78.8794	-0.0137276	359.889	3.69118e-06	0.322932	0.029763	0.00609461	0	2.83575	0.016167	0.0142024	-1642.53
111.036	1.75559	41.0305	-78.8942	-0.0142324	363.432	3.69005e-06	0.322935	0.029806	0.00610136	0	2.8356	0.0165898	-0.0233499	-1647.04
112.286	1.78402	41.0135	-78.9853	-0.0147371	366.975	3.69654e-06	0.322914	0.0298208	0.00612682	0	2.83546	0.017001	-0.061387	-1684.45
113.535	1.81274	40.9808	-79.1709	-0.0152416	370.518	3.71089e-06	0.322863	0.0298059	0.00617098	0	2.83531	0.0174006	-0.100963	-1764.53
114.784	1.84182	40.9318	-79.4071	-0.0157455	374.063	3.73357e-06	0.322781	0.0297582	0.00623349	0	2.83517	0.0177868	-0.14196	-1874.33
116.032	1.8713	40.8666	-79.5737	-0.0162486	377.609	3.76481e-06	0.322684	0.0296765	0.0063123	0	2.83502	0.0181583	-0.181094	-1963.99
117.279	1.90125	40.7859	-79.7236	-0.0167511	381.157	3.80447e-06	0.322562	0.0295607	0.00640438	0	2.83488	0.018518	-0.220483	-2054.72
118.524	1.9317	40.6882	-79.9665	-0.0172521	384.709	3.85374e-06	0.322367	0.0294037	0.00650895	0	2.83473	0.0188675	-0.265544	-2201.46
119.769	1.96271	40.5727	-80.15	-0.017751	388.264	3.91343e-06	0.322169	0.0292009	0.00662127	0	2.83459	0.019203	-0.30843	-2333.05
121.011	1.99427	40.4398	-80.344	-0.0182476	391.825	3.98399e-06	0.321916	0.0289497	0.00673621	0	2.83445	0.0195204	-0.353885	-2484.98
122.252	2.0264	40.2887	-80.5127	-0.0187413	395.392	4.06659e-06	0.321645	0.0286441	0.00684822	0	2.83431	0.0198233	-0.399192	-2639.06
123.49	2.05907	40.119	-80.6783	-0.0192315	398.966	4.16223e-06	0.321324	0.0282798	0.00695035	0	2.83417	0.0201106	-0.446507	-2808.92
124.725	2.09223	39.9303	-80.849	-0.0197174	402.548	4.27218e-06	0.320917	0.0278538	0.00703462	0	2.83403	0.0203806	-0.497319	-3002
125.957	2.12581	39.7217	-80.9779	-0.0201977	406.139	4.3983e-06	0.320519	0.0273631	0.00709485	0	2.83389	0.0206287	-0.54649	-3188.49
127.185	2.15971	39.493	-81.1087	-0.0206716	409.742	4.54209e-06	0.320016	0.0268076	0.00712347	0	2.83375	0.0208562	-0.599388	-3398.75
128.41	2.19381	39.2435	-81.2182	-0.0211373	413.357	4.70573e-06	0.319453	0.0261909	0.00711242	0	2.83361	0.0210611	-0.653369	-3617.34
129.63	2.22794	38.9731	-81.2952	-0.0215938	416.986	4.89116e-06	0.318866	0.0255201	0.00705545	0	2.83347	0.0212381	-0.706644	-3834.67
130.845	2.26192	38.6821	-81.3522	-0.0220399	420.629	5.10031e-06	0.318199	0.0248086	0.00694798	0	2.83333	0.0213823	-0.760946	-4059.28
132.055	2.29555	38.3703	-81.3847	-0.0224736	424.289	5.33593e-06	0.317461	0.0240711	0.0067897	0	2.83318	0.0214943	-0.815438	-4286.71
133.259	2.32864	38.0382	-81.3856	-0.0228934	427.966	5.60019e-06	0.316686	0.0233316	0.00658151	0	2.83304	0.021573	-0.868341	-4507.8
134.458	2.36099	37.6867	-81.3555	-0.0232976	431.66	5.8954e-06	0.315875	0.0226189	0.00633054	0	2.83289	0.0216143	-0.919065	-4719.4
135.652	2.39245	37.3167	-81.2975	-0.0236846	435.372	6.22367e-06	0.315012	0.0219684	0.00604906	0	2.83273	0.0216184	-0.967513	-4920.41
136.84	2.4229	36.9298	-81.2037	-0.0240533	439.1	6.58664e-06	0.314162	0.021422	0.00575422	0	2.83258	0.0215834	-1.01096	-5097.63
138.024	2.45231	36.5283	-81.0764	-0.0244027	442.845	6.98519e-06	0.313329	0.0210256	0.00547025	0	2.83242	0.021513	-1.04866	-5246.85
139.203	2.48072	36.1143	-80.9206	-0.0247318	446.603	7.42022e-06	0.312495	0.0208098	0.005223	0	2.83227	0.021412	-1.08074	-5368.27
140.378	2.5083	35.6904	-80.7399	-0.0250402	450.372	7.89333e-06	0.311672	0.0207653	0.00504035	0	2.83211	0.0212928	-1.1075	-5463.16
141.551	2.53534	35.2585	-80.5343	-0.0253273	454.15	8.40656e-06	0.310907	0.0208608	0.00494999	0	2.83197	0.0211597	-1.12873	-5531.01
142.721	2.5622	34.8201	-80.3137	-0.0255929	457.937	8.96317e-06	0.310159	0.0210472	0.00497136	0	2.83182	0.0210129	-1.14695	-5583.64
143.889	2.58933	34.3761	-80.0838	-0.025837	461.73	9.56778e-06	0.309416	0.0212593	0.00511611	0	2.83169	0.020852	-1.16413	-5630.63
145.056	2.6172	33.9267	-79.8484	-0.0260597	465.53	1.02265e-05	0.308681	0.0214248	0.00538847	0	2.83156	0.0206715	-1.18193	-5679.86
146.219	2.64626	33.4713	-79.6109	-0.0262613	469.338	1.09463e-05	0.307949	0.0214791	0.00576233	0	2.83144	0.0204666	-1.20198	-5738.94
147.38	2.67679	33.0089	-79.3719	-0.0264425	473.154	1.17352e-05	0.307231	0.0213756	0.0061765	0	2.83133	0.0202348	-1.22501	-5811.42
148.538	2.70883	32.5381	-79.1352	-0.0266043	476.983	1.26016e-05	0.306491	0.0210787	0.00656357	0	2.83123	0.019978	-1.25257	-5904.32
149.691	2.74216	32.0575	-78.8955	-0.0267476	480.824	1.35569e-05	0.305773	0.0205751	0.00684814	0	2.83115	0.0197039	-1.28365	-6013.4
150.84	2.77624	31.5655	-78.6542	-0.0268736	484.682	1.46133e-05	0.30504	0.0198584	0.00694746	0	2.83108	0.0194211	-1.31914	-6142.25
151.983	2.81024	31.0606	-78.4094	-0.0269836	488.559	1.57854e-05	0.304285	0.0189395	0.00679981	0	2.83102	0.0191371	-1.3587	-6289.19
153.119	2.84318	30.5416	-78.1564	-0.0270789	492.457	1.70935e-05	0.303513	0.0178483	0.00639541	0	2.83097	0.018861	-1.40139	-6449.99
154.249	2.87409	30.0074	-77.8936	-0.0271608	496.379	1.8561e-05	0.302701	0.0166185	0.00574344	0	2.83094	0.0185963	-1.44688	-6622.72
155.371	2.90204	29.4573	-77.617	-0.0272323	500.327	2.02159e-05	0.301855	0.0152816	0.00488762	0	2.83092	0.0183495	-1.49424	-6802.84
156.485	2.92631	28.8907	-77.3267	-0.0272964	504.304	2.20914e-05	0.300933	0.0138767	0.00388571	0	2.83091	0.0181282	-1.5436	-6989.76
157.59	2.94643	28.3075	-77.0167	-0.027354	508.309	2.42283e-05	0.299984	0.0124489	0.00281069	0	2.83091	0.0179336	-1.59295	-7175.49
158.687	2.96223	27.7078	-76.6889	-0.0274062	512.345	2.66734e-05	0.298949	0.0110507	0.0017511	0	2.83092	0.0177694	-1.64265	-7360.16
159.775	2.97391	27.0921	-76.3396	-0.0274538	516.411	2.94836e-05	0.297855	0.0097442	0.000811389	0	2.83093	0.0176375	-1.691	-7536.74
160.854	2.98216	26.4613	-75.9671	-0.0274976	520.508	3.27218e-05	0.29672	0.00859159	9.50673e-05	0	2.83095	0.0175347	-1.73664	-7699.43
161.925	2.98793	25.8168	-75.5743	-0.027538	524.633	3.64391e-05	0.295549	0.00763999	-0.000369613	0	2.83097	0.0174624	-1.7788	-7844.91
162.989	2.99218	25.1606	-75.1607	-0.0275758	528.783	4.06728e-05	0.294447	0.00693227	-0.000632655	0	2.831	0.0174166	-1.81472	-7963.97
164.047	2.99546	24.4948	-74.733	-0.0276114	532.956	4.54356e-05	0.293432	0.00651018	-0.000838067	0	2.83103	0.0174054	-1.84346	-8054.28
165.101	2.99771	23.8225	-74.293	-0.0276453	537.145	5.07276e-05	0.292593	0.00641969	-0.00113131	0	2.83105	0.017436	-1.86257	-8107.08
166.152	2.99841	23.1468	-73.8421	-0.027678	541.344	5.65791e-05	0.291937	0.00671175	-0.00157304	0	2.83107	0.0175172	-1.87107	-8118.95
167.204	2.99699	22.4711	-73.3837	-0.0277094	545.545	6.30584e-05	0.291365	0.00739951	-0.00213331	0	2.83108	0.0176466	-1.8709	-8094.5
168.257	2.9932	21.7983	-72.9126	-0.0277397	549.743	7.02789e-05	0.290913	0.00845485	-0.00270231	0	2.83109	0.0178083	-1.86172	-8032.37
169.314	2.98728	21.1312	-72.4263	-0.0277684	553.932	7.83864e-05	0.290554	0.0098365	-0.00317162	0	2.8311	0.0180003	-1.84462	-7936.42
170.376	2.97988	20.472	-71.9292	-0.0277956	558.107	8.75003e-05	0.290214	0.0114736	-0.0034539	0	2.83111	0.0182119	-1.82233	-7816.81
